# slice# index_from index_below freq (GHz)
0 0 199 300.0
1 199 361 300.05
2 361 525 300.1
3 525 688 300.15
4 688 850 300.2
5 850 1014 300.25
6 1014 1176 300.3
7 1176 1339 300.35
8 1339 1501 300.4
9 1501 1665 300.45
10 1665 1827 300.5
11 1827 1990 300.55
12 1990 2152 300.6
13 2152 2316 300.65
14 2316 2478 300.7
15 2478 2641 300.75
16 2641 2805 300.8
17 2805 2967 300.85
18 2967 3130 300.9
19 3130 3293 300.95
20 3293 3456 301.0
21 3456 3618 301.05
22 3618 3781 301.1
23 3781 3943 301.15
24 3943 4106 301.2
25 4106 4269 301.25
26 4269 4432 301.3
27 4432 4595 301.35
28 4595 4758 301.4
29 4758 4920 301.45
30 4920 5084 301.5
31 5084 5247 301.55
32 5247 5409 301.6
33 5409 5571 301.65
34 5571 5734 301.7
35 5734 5897 301.75
36 5897 6059 301.8
37 6059 6222 301.85
38 6222 6385 301.9
39 6385 6547 301.95
40 6547 6710 302.0
41 6710 6873 302.05
42 6873 7036 302.1
43 7036 7198 302.15
44 7198 7361 302.2
45 7361 7524 302.25
46 7524 7687 302.3
47 7687 7850 302.35
48 7850 8013 302.4
49 8013 8175 302.45
50 8175 8339 302.5
51 8339 8502 302.55
52 8502 8665 302.6
53 8665 8828 302.65
54 8828 8990 302.7
55 8990 9152 302.75
56 9152 9315 302.8
57 9315 9478 302.85
58 9478 9641 302.9
59 9641 9803 302.95
60 9803 9967 303.0
61 9967 10130 303.05
62 10130 10292 303.1
63 10292 10455 303.15
64 10455 10618 303.2
65 10618 10780 303.25
66 10780 10943 303.3
67 10943 11106 303.35
68 11106 11269 303.4
69 11269 11432 303.45
70 11432 11595 303.5
71 11595 11758 303.55
72 11758 11920 303.6
73 11920 12084 303.65
74 12084 12246 303.7
75 12246 12409 303.75
76 12409 12573 303.8
77 12573 12735 303.85
78 12735 12898 303.9
79 12898 13060 303.95
80 13060 13223 304.0
81 13223 13385 304.05
82 13385 13548 304.1
83 13548 13711 304.15
84 13711 13873 304.2
85 13873 14036 304.25
86 14036 14199 304.3
87 14199 14362 304.35
88 14362 14525 304.4
89 14525 14688 304.45
90 14688 14851 304.5
91 14851 15013 304.55
92 15013 15176 304.6
93 15176 15339 304.65
94 15339 15502 304.7
95 15502 15664 304.75
96 15664 15828 304.8
97 15828 15990 304.85
98 15990 16153 304.9
99 16153 16315 304.95
100 16315 16477 305.0
101 16477 16640 305.05
102 16640 16803 305.1
103 16803 16966 305.15
104 16966 17129 305.2
105 17129 17291 305.25
106 17291 17455 305.3
107 17455 17617 305.35
108 17617 17780 305.4
109 17780 17943 305.45
110 17943 18106 305.5
111 18106 18268 305.55
112 18268 18431 305.6
113 18431 18593 305.65
114 18593 18756 305.7
115 18756 18918 305.75
116 18918 19081 305.8
117 19081 19243 305.85
118 19243 19406 305.9
119 19406 19569 305.95
120 19569 19732 306.0
121 19732 19895 306.05
122 19895 20058 306.1
123 20058 20221 306.15
124 20221 20384 306.2
125 20384 20546 306.25
126 20546 20709 306.3
127 20709 20872 306.35
128 20872 21035 306.4
129 21035 21197 306.45
130 21197 21361 306.5
131 21361 21523 306.55
132 21523 21686 306.6
133 21686 21848 306.65
134 21848 22011 306.7
135 22011 22173 306.75
136 22173 22336 306.8
137 22336 22499 306.85
138 22499 22662 306.9
139 22662 22824 306.95
140 22824 22986 307.0
141 22986 23149 307.05
142 23149 23312 307.1
143 23312 23475 307.15
144 23475 23638 307.2
145 23638 23801 307.25
146 23801 23963 307.3
147 23963 24127 307.35
148 24127 24289 307.4
149 24289 24452 307.45
150 24452 24616 307.5
151 24616 24778 307.55
152 24778 24941 307.6
153 24941 25104 307.65
154 25104 25267 307.7
155 25267 25429 307.75
156 25429 25592 307.8
157 25592 25754 307.85
158 25754 25917 307.9
159 25917 26079 307.95
160 26079 26242 308.0
161 26242 26405 308.05
162 26405 26567 308.1
163 26567 26730 308.15
164 26730 26893 308.2
165 26893 27056 308.25
166 27056 27219 308.3
167 27219 27382 308.35
168 27382 27545 308.4
169 27545 27708 308.45
170 27708 27871 308.5
171 27871 28034 308.55
172 28034 28196 308.6
173 28196 28359 308.65
174 28359 28521 308.7
175 28521 28684 308.75
176 28684 28846 308.8
177 28846 29009 308.85
178 29009 29172 308.9
179 29172 29335 308.95
180 29335 29498 309.0
181 29498 29661 309.05
182 29661 29823 309.1
183 29823 29987 309.15
184 29987 30150 309.2
185 30150 30312 309.25
186 30312 30474 309.3
187 30474 30638 309.35
188 30638 30800 309.4
189 30800 30963 309.45
190 30963 31125 309.5
191 31125 31288 309.55
192 31288 31450 309.6
193 31450 31613 309.65
194 31613 31776 309.7
195 31776 31938 309.75
196 31938 32101 309.8
197 32101 32264 309.85
198 32264 32427 309.9
199 32427 32590 309.95
200 32590 32752 310.0
201 32752 32915 310.05
202 32915 33077 310.1
203 33077 33239 310.15
204 33239 33402 310.2
205 33402 33565 310.25
206 33565 33728 310.3
207 33728 33890 310.35
208 33890 34053 310.4
209 34053 34217 310.45
210 34217 34379 310.5
211 34379 34542 310.55
212 34542 34706 310.6
213 34706 34868 310.65
214 34868 35031 310.7
215 35031 35194 310.75
216 35194 35357 310.8
217 35357 35519 310.85
218 35519 35682 310.9
219 35682 35844 310.95
220 35844 36006 311.0
221 36006 36169 311.05
222 36169 36333 311.1
223 36333 36495 311.15
224 36495 36658 311.2
225 36658 36820 311.25
226 36820 36983 311.3
227 36983 37146 311.35
228 37146 37309 311.4
229 37309 37472 311.45
230 37472 37635 311.5
231 37635 37797 311.55
232 37797 37960 311.6
233 37960 38122 311.65
234 38122 38285 311.7
235 38285 38447 311.75
236 38447 38611 311.8
237 38611 38773 311.85
238 38773 38936 311.9
239 38936 39099 311.95
240 39099 39262 312.0
241 39262 39425 312.05
242 39425 39587 312.1
243 39587 39751 312.15
244 39751 39913 312.2
245 39913 40076 312.25
246 40076 40239 312.3
247 40239 40402 312.35
248 40402 40565 312.4
249 40565 40728 312.45
250 40728 40890 312.5
251 40890 41053 312.55
252 41053 41215 312.6
253 41215 41378 312.65
254 41378 41541 312.7
255 41541 41704 312.75
256 41704 41866 312.8
257 41866 42030 312.85
258 42030 42192 312.9
259 42192 42355 312.95
260 42355 42519 313.0
261 42519 42681 313.05
262 42681 42844 313.1
263 42844 43007 313.15
264 43007 43170 313.2
265 43170 43332 313.25
266 43332 43495 313.3
267 43495 43657 313.35
268 43657 43820 313.4
269 43820 43983 313.45
270 43983 44145 313.5
271 44145 44309 313.55
272 44309 44471 313.6
273 44471 44634 313.65
274 44634 44798 313.7
275 44798 44960 313.75
276 44960 45123 313.8
277 45123 45286 313.85
278 45286 45449 313.9
279 45449 45611 313.95
280 45611 45774 314.0
281 45774 45937 314.05
282 45937 46099 314.1
283 46099 46261 314.15
284 46261 46424 314.2
285 46424 46587 314.25
286 46587 46750 314.3
287 46750 46913 314.35
288 46913 47076 314.4
289 47076 47239 314.45
290 47239 47401 314.5
291 47401 47564 314.55
292 47564 47726 314.6
293 47726 47889 314.65
294 47889 48052 314.7
295 48052 48214 314.75
296 48214 48377 314.8
297 48377 48540 314.85
298 48540 48702 314.9
299 48702 48866 314.95
300 48866 49029 315.0
301 49029 49191 315.05
302 49191 49355 315.1
303 49355 49517 315.15
304 49517 49680 315.2
305 49680 49844 315.25
306 49844 50006 315.3
307 50006 50169 315.35
308 50169 50332 315.4
309 50332 50495 315.45
310 50495 50657 315.5
311 50657 50820 315.55
312 50820 50982 315.6
313 50982 51145 315.65
314 51145 51307 315.7
315 51307 51470 315.75
316 51470 51633 315.8
317 51633 51795 315.85
318 51795 51959 315.9
319 51959 52122 315.95
320 52122 52284 316.0
321 52284 52448 316.05
322 52448 52610 316.1
323 52610 52772 316.15
324 52772 52935 316.2
325 52935 53098 316.25
326 53098 53260 316.3
327 53260 53423 316.35
328 53423 53586 316.4
329 53586 53748 316.45
330 53748 53911 316.5
331 53911 54074 316.55
332 54074 54237 316.6
333 54237 54400 316.65
334 54400 54563 316.7
335 54563 54726 316.75
336 54726 54888 316.8
337 54888 55051 316.85
338 55051 55214 316.9
339 55214 55376 316.95
340 55376 55539 317.0
341 55539 55702 317.05
342 55702 55865 317.1
343 55865 56028 317.15
344 56028 56190 317.2
345 56190 56354 317.25
346 56354 56516 317.3
347 56516 56679 317.35
348 56679 56842 317.4
349 56842 57005 317.45
350 57005 57168 317.5
351 57168 57331 317.55
352 57331 57494 317.6
353 57494 57657 317.65
354 57657 57822 317.7
355 57822 57984 317.75
356 57984 58147 317.8
357 58147 58310 317.85
358 58310 58472 317.9
359 58472 58635 317.95
360 58635 58799 318.0
361 58799 58962 318.05
362 58962 59124 318.1
363 59124 59288 318.15
364 59288 59450 318.2
365 59450 59613 318.25
366 59613 59775 318.3
367 59775 59938 318.35
368 59938 60100 318.4
369 60100 60262 318.45
370 60262 60425 318.5
371 60425 60588 318.55
372 60588 60751 318.6
373 60751 60913 318.65
374 60913 61076 318.7
375 61076 61239 318.75
376 61239 61402 318.8
377 61402 61565 318.85
378 61565 61727 318.9
379 61727 61890 318.95
380 61890 62053 319.0
381 62053 62215 319.05
382 62215 62378 319.1
383 62378 62540 319.15
384 62540 62703 319.2
385 62703 62866 319.25
386 62866 63028 319.3
387 63028 63191 319.35
388 63191 63353 319.4
389 63353 63516 319.45
390 63516 63678 319.5
391 63678 63841 319.55
392 63841 64004 319.6
393 64004 64166 319.65
394 64166 64329 319.7
395 64329 64492 319.75
396 64492 64655 319.8
397 64655 64818 319.85
398 64818 64980 319.9
399 64980 65143 319.95
400 65143 65305 320.0
401 65305 65468 320.05
402 65468 65630 320.1
403 65630 65793 320.15
404 65793 65955 320.2
405 65955 66118 320.25
406 66118 66280 320.3
407 66280 66443 320.35
408 66443 66605 320.4
409 66605 66768 320.45
410 66768 66931 320.5
411 66931 67094 320.55
412 67094 67256 320.6
413 67256 67418 320.65
414 67418 67581 320.7
415 67581 67743 320.75
416 67743 67905 320.8
417 67905 68068 320.85
418 68068 68231 320.9
419 68231 68393 320.95
420 68393 68556 321.0
421 68556 68719 321.05
422 68719 68882 321.1
423 68882 69044 321.15
424 69044 69207 321.2
425 69207 69369 321.25
426 69369 69531 321.3
427 69531 69694 321.35
428 69694 69856 321.4
429 69856 70019 321.45
430 70019 70182 321.5
431 70182 70344 321.55
432 70344 70508 321.6
433 70508 70670 321.65
434 70670 70833 321.7
435 70833 70995 321.75
436 70995 71158 321.8
437 71158 71320 321.85
438 71320 71483 321.9
439 71483 71645 321.95
440 71645 71809 322.0
441 71809 71971 322.05
442 71971 72133 322.1
443 72133 72297 322.15
444 72297 72459 322.2
445 72459 72622 322.25
446 72622 72785 322.3
447 72785 72948 322.35
448 72948 73111 322.4
449 73111 73274 322.45
450 73274 73438 322.5
451 73438 73601 322.55
452 73601 73764 322.6
453 73764 73927 322.65
454 73927 74090 322.7
455 74090 74253 322.75
456 74253 74416 322.8
457 74416 74579 322.85
458 74579 74742 322.9
459 74742 74905 322.95
460 74905 75067 323.0
461 75067 75230 323.05
462 75230 75393 323.1
463 75393 75556 323.15
464 75556 75719 323.2
465 75719 75882 323.25
466 75882 76044 323.3
467 76044 76208 323.35
468 76208 76371 323.4
469 76371 76533 323.45
470 76533 76697 323.5
471 76697 76860 323.55
472 76860 77022 323.6
473 77022 77184 323.65
474 77184 77347 323.7
475 77347 77509 323.75
476 77509 77671 323.8
477 77671 77834 323.85
478 77834 77997 323.9
479 77997 78160 323.95
480 78160 78322 324.0
481 78322 78485 324.05
482 78485 78648 324.1
483 78648 78810 324.15
484 78810 78973 324.2
485 78973 79135 324.25
486 79135 79298 324.3
487 79298 79461 324.35
488 79461 79624 324.4
489 79624 79787 324.45
490 79787 79949 324.5
491 79949 80112 324.55
492 80112 80275 324.6
493 80275 80438 324.65
494 80438 80601 324.7
495 80601 80763 324.75
496 80763 80926 324.8
497 80926 81089 324.85
498 81089 81252 324.9
499 81252 81415 324.95
500 81415 81578 325.0
501 81578 81741 325.05
502 81741 81903 325.1
503 81903 82066 325.15
504 82066 82229 325.2
505 82229 82392 325.25
506 82392 82554 325.3
507 82554 82717 325.35
508 82717 82879 325.4
509 82879 83042 325.45
510 83042 83204 325.5
511 83204 83367 325.55
512 83367 83530 325.6
513 83530 83693 325.65
514 83693 83856 325.7
515 83856 84019 325.75
516 84019 84181 325.8
517 84181 84345 325.85
518 84345 84507 325.9
519 84507 84670 325.95
520 84670 84833 326.0
521 84833 84996 326.05
522 84996 85159 326.1
523 85159 85322 326.15
524 85322 85485 326.2
525 85485 85647 326.25
526 85647 85811 326.3
527 85811 85973 326.35
528 85973 86136 326.4
529 86136 86300 326.45
530 86300 86462 326.5
531 86462 86625 326.55
532 86625 86788 326.6
533 86788 86951 326.65
534 86951 87113 326.7
535 87113 87276 326.75
536 87276 87438 326.8
537 87438 87601 326.85
538 87601 87763 326.9
539 87763 87926 326.95
540 87926 88089 327.0
541 88089 88251 327.05
542 88251 88414 327.1
543 88414 88577 327.15
544 88577 88740 327.2
545 88740 88903 327.25
546 88903 89065 327.3
547 89065 89228 327.35
548 89228 89391 327.4
549 89391 89553 327.45
550 89553 89716 327.5
551 89716 89879 327.55
552 89879 90041 327.6
553 90041 90204 327.65
554 90204 90367 327.7
555 90367 90530 327.75
556 90530 90692 327.8
557 90692 90855 327.85
558 90855 91018 327.9
559 91018 91180 327.95
560 91180 91344 328.0
561 91344 91507 328.05
562 91507 91670 328.1
563 91670 91834 328.15
564 91834 91996 328.2
565 91996 92159 328.25
566 92159 92321 328.3
567 92321 92484 328.35
568 92484 92646 328.4
569 92646 92809 328.45
570 92809 92972 328.5
571 92972 93134 328.55
572 93134 93297 328.6
573 93297 93460 328.65
574 93460 93623 328.7
575 93623 93786 328.75
576 93786 93948 328.8
577 93948 94112 328.85
578 94112 94274 328.9
579 94274 94437 328.95
580 94437 94601 329.0
581 94601 94763 329.05
582 94763 94926 329.1
583 94926 95088 329.15
584 95088 95251 329.2
585 95251 95413 329.25
586 95413 95576 329.3
587 95576 95739 329.35
588 95739 95902 329.4
589 95902 96065 329.45
590 96065 96228 329.5
591 96228 96390 329.55
592 96390 96553 329.6
593 96553 96716 329.65
594 96716 96879 329.7
595 96879 97042 329.75
596 97042 97204 329.8
597 97204 97368 329.85
598 97368 97530 329.9
599 97530 97693 329.95
600 97693 97856 330.0
601 97856 98019 330.05
602 98019 98182 330.1
603 98182 98344 330.15
604 98344 98508 330.2
605 98508 98671 330.25
606 98671 98833 330.3
607 98833 98996 330.35
608 98996 99159 330.4
609 99159 99322 330.45
610 99322 99485 330.5
611 99485 99648 330.55
612 99648 99811 330.6
613 99811 99973 330.65
614 99973 100137 330.7
615 100137 100299 330.75
616 100299 100462 330.8
617 100462 100626 330.85
618 100626 100789 330.9
619 100789 100952 330.95
620 100952 101115 331.0
621 101115 101278 331.05
622 101278 101440 331.1
623 101440 101603 331.15
624 101603 101765 331.2
625 101765 101929 331.25
626 101929 102091 331.3
627 102091 102254 331.35
628 102254 102417 331.4
629 102417 102580 331.45
630 102580 102742 331.5
631 102742 102906 331.55
632 102906 103068 331.6
633 103068 103231 331.65
634 103231 103394 331.7
635 103394 103557 331.75
636 103557 103720 331.8
637 103720 103882 331.85
638 103882 104045 331.9
639 104045 104208 331.95
640 104208 104371 332.0
641 104371 104534 332.05
642 104534 104696 332.1
643 104696 104859 332.15
644 104859 105022 332.2
645 105022 105185 332.25
646 105185 105347 332.3
647 105347 105510 332.35
648 105510 105673 332.4
649 105673 105836 332.45
650 105836 105999 332.5
651 105999 106161 332.55
652 106161 106324 332.6
653 106324 106486 332.65
654 106486 106649 332.7
655 106649 106812 332.75
656 106812 106975 332.8
657 106975 107138 332.85
658 107138 107300 332.9
659 107300 107463 332.95
660 107463 107626 333.0
661 107626 107788 333.05
662 107788 107952 333.1
663 107952 108115 333.15
664 108115 108277 333.2
665 108277 108441 333.25
666 108441 108603 333.3
667 108603 108766 333.35
668 108766 108930 333.4
669 108930 109092 333.45
670 109092 109255 333.5
671 109255 109418 333.55
672 109418 109581 333.6
673 109581 109744 333.65
674 109744 109908 333.7
675 109908 110070 333.75
676 110070 110233 333.8
677 110233 110395 333.85
678 110395 110558 333.9
679 110558 110720 333.95
680 110720 110883 334.0
681 110883 111046 334.05
682 111046 111208 334.1
683 111208 111371 334.15
684 111371 111533 334.2
685 111533 111697 334.25
686 111697 111859 334.3
687 111859 112022 334.35
688 112022 112184 334.4
689 112184 112347 334.45
690 112347 112510 334.5
691 112510 112672 334.55
692 112672 112836 334.6
693 112836 112998 334.65
694 112998 113161 334.7
695 113161 113324 334.75
696 113324 113487 334.8
697 113487 113650 334.85
698 113650 113812 334.9
699 113812 113975 334.95
700 113975 114137 335.0
701 114137 114301 335.05
702 114301 114463 335.1
703 114463 114625 335.15
704 114625 114789 335.2
705 114789 114952 335.25
706 114952 115114 335.3
707 115114 115276 335.35
708 115276 115439 335.4
709 115439 115602 335.45
710 115602 115765 335.5
711 115765 115927 335.55
712 115927 116090 335.6
713 116090 116253 335.65
714 116253 116416 335.7
715 116416 116579 335.75
716 116579 116742 335.8
717 116742 116904 335.85
718 116904 117068 335.9
719 117068 117230 335.95
720 117230 117393 336.0
721 117393 117555 336.05
722 117555 117718 336.1
723 117718 117880 336.15
724 117880 118042 336.2
725 118042 118206 336.25
726 118206 118368 336.3
727 118368 118531 336.35
728 118531 118693 336.4
729 118693 118857 336.45
730 118857 119020 336.5
731 119020 119182 336.55
732 119182 119345 336.6
733 119345 119507 336.65
734 119507 119670 336.7
735 119670 119832 336.75
736 119832 119995 336.8
737 119995 120158 336.85
738 120158 120321 336.9
739 120321 120483 336.95
740 120483 120647 337.0
741 120647 120809 337.05
742 120809 120972 337.1
743 120972 121134 337.15
744 121134 121297 337.2
745 121297 121459 337.25
746 121459 121622 337.3
747 121622 121784 337.35
748 121784 121947 337.4
749 121947 122110 337.45
750 122110 122272 337.5
751 122272 122436 337.55
752 122436 122598 337.6
753 122598 122761 337.65
754 122761 122923 337.7
755 122923 123086 337.75
756 123086 123248 337.8
757 123248 123411 337.85
758 123411 123574 337.9
759 123574 123737 337.95
760 123737 123899 338.0
761 123899 124061 338.05
762 124061 124225 338.1
763 124225 124387 338.15
764 124387 124550 338.2
765 124550 124713 338.25
766 124713 124876 338.3
767 124876 125038 338.35
768 125038 125202 338.4
769 125202 125364 338.45
770 125364 125527 338.5
771 125527 125691 338.55
772 125691 125853 338.6
773 125853 126016 338.65
774 126016 126180 338.7
775 126180 126342 338.75
776 126342 126505 338.8
777 126505 126667 338.85
778 126667 126830 338.9
779 126830 126992 338.95
780 126992 127155 339.0
781 127155 127318 339.05
782 127318 127481 339.1
783 127481 127643 339.15
784 127643 127806 339.2
785 127806 127969 339.25
786 127969 128133 339.3
787 128133 128295 339.35
788 128295 128458 339.4
789 128458 128621 339.45
790 128621 128784 339.5
791 128784 128946 339.55
792 128946 129109 339.6
793 129109 129272 339.65
794 129272 129434 339.7
795 129434 129597 339.75
796 129597 129761 339.8
797 129761 129923 339.85
798 129923 130086 339.9
799 130086 130249 339.95
800 130249 130412 340.0
801 130412 130574 340.05
802 130574 130738 340.1
803 130738 130900 340.15
804 130900 131063 340.2
805 131063 131227 340.25
806 131227 131389 340.3
807 131389 131551 340.35
808 131551 131714 340.4
809 131714 131877 340.45
810 131877 132039 340.5
811 132039 132202 340.55
812 132202 132365 340.6
813 132365 132527 340.65
814 132527 132690 340.7
815 132690 132852 340.75
816 132852 133016 340.8
817 133016 133178 340.85
818 133178 133341 340.9
819 133341 133504 340.95
820 133504 133666 341.0
821 133666 133829 341.05
822 133829 133993 341.1
823 133993 134155 341.15
824 134155 134318 341.2
825 134318 134480 341.25
826 134480 134643 341.3
827 134643 134805 341.35
828 134805 134968 341.4
829 134968 135131 341.45
830 135131 135293 341.5
831 135293 135456 341.55
832 135456 135619 341.6
833 135619 135782 341.65
834 135782 135945 341.7
835 135945 136108 341.75
836 136108 136270 341.8
837 136270 136433 341.85
838 136433 136596 341.9
839 136596 136758 341.95
840 136758 136921 342.0
841 136921 137084 342.05
842 137084 137246 342.1
843 137246 137410 342.15
844 137410 137573 342.2
845 137573 137735 342.25
846 137735 137898 342.3
847 137898 138061 342.35
848 138061 138224 342.4
849 138224 138387 342.45
850 138387 138550 342.5
851 138550 138713 342.55
852 138713 138875 342.6
853 138875 139038 342.65
854 139038 139201 342.7
855 139201 139363 342.75
856 139363 139526 342.8
857 139526 139689 342.85
858 139689 139851 342.9
859 139851 140014 342.95
860 140014 140176 343.0
861 140176 140340 343.05
862 140340 140502 343.1
863 140502 140665 343.15
864 140665 140828 343.2
865 140828 140991 343.25
866 140991 141153 343.3
867 141153 141317 343.35
868 141317 141479 343.4
869 141479 141642 343.45
870 141642 141806 343.5
871 141806 141968 343.55
872 141968 142131 343.6
873 142131 142294 343.65
